upper angle,motor command,mills since start,set angle = 0.0,-1.0001554737,707.109919907,0.0325624021475,
-0.998110165984,533.594194412,0.064231435877,
-0.971521165661,542.593548368,0.0977885603511,
-0.938796242186,551.290196781,0.130052887924,
-0.901980703277,557.319763931,0.162010587848,
-0.877437010671,572.070523188,0.194171850898,
-0.846757394913,579.212737736,0.226276236015,
-0.824259010024,592.679043746,0.257870430361,
-0.797670009701,600.901180769,0.29111536769,
-0.775171624812,612.174916906,0.322034296965,
-0.75471854764,623.489559198,0.353939395494,
-0.738356085902,636.800421821,0.385894529498,
-0.732220162751,656.27993252,0.419338753415,
-0.719948316448,669.075377598,0.450077212862,
-0.707676470145,682.754395611,0.483154082317,
-0.697449931559,697.578785945,0.513965242879,
-0.68926870069,713.196755673,0.546029000903,
-0.679042162104,726.687605376,0.578065816748,
-0.668815623518,740.301173541,0.609873410251,
-0.658589084932,753.628398626,0.641694261017,
-0.648362546346,766.669280631,0.67382772658,
-0.640181315478,780.912803574,0.706429472861,
-0.636090700043,797.496158545,0.739080399309,
-0.625864161457,808.679901142,0.769761980823,
-0.613592315154,819.315501271,0.80181077097,
-0.603365776568,831.505535266,0.834597691269,
-0.591093930265,841.511180618,0.865703932831,
-0.578822083962,851.582275818,0.897697128007,
-0.566550237659,861.309759321,0.929875924854,
-0.562459622225,876.649567199,0.9618537245,
-0.554278391356,887.260623636,0.993675002919,
-0.542006545053,895.482760659,1.02580504725,
-0.533825314184,907.157377109,1.05820451337,
-0.523598775598,916.295811989,1.08975252113,
-0.511326929295,924.067981315,1.12161314368,
-0.501100390709,933.394584505,1.15356699472,
-0.497009775275,946.492735126,1.18672768429,
-0.488828544406,955.271195848,1.2181054859,
-0.474511390386,960.171753138,1.24962612382,
-0.466330159517,970.365566801,1.28156457933,
-0.454058313214,976.125153332,1.31372327646,
-0.443831774628,983.848235272,1.34567669985,
-0.429514620608,987.897944552,1.37815399892,
-0.423378697456,998.320832679,1.40952538573,
-0.411106851153,1002.46871673,1.44163832392,
-0.39883500485,1007.50017371,1.47377392775,
-0.382472543113,1009.21005097,1.50659420504,
-0.368155389093,1012.76888639,1.53743786727,
-0.349747619638,1011.19225593,1.56938402055,
-0.337475773335,1006.28351741,1.60154699422,
-0.323158619315,998.715878853,1.63426420697,
-0.308841465294,991.557301843,1.66671114264,
-0.294524311274,984.398724833,1.69716863366,
-0.288388388123,982.967009431,1.72868285678,
-0.265890003234,968.445324639,1.76064440558,
-0.247482233779,960.059562999,1.79340139013,
-0.229074464324,950.855678271,1.82563407134,
-0.206576079435,938.78836274,1.85762812182,
-0.182032386829,926.107454893,1.88946522342,
-0.161579309657,916.699039394,1.92137545379,
-0.1308996939,899.313923798,1.95341697383,
-0.100220078142,883.974115919,1.9852202908,
-0.0695404623841,868.634308041,2.01729174658,
-0.0327249234749,848.999353956,2.04937988086,
0.0102265385859,826.010095214,2.08168013134,
0.0552233083639,801.556396148,2.11409884187,
0.100220078142,776.251849071,2.1453427879,
0.15953400194,739.264504313,2.17732229816,
0.227029156607,697.523864421,2.20925348356,
0.296569618991,654.040622354,2.24143441868,
0.380427235396,598.596420757,2.27324671637,
0.468375467234,540.689668668,2.3052283649,
0.570640853093,470.715601048,2.33721386231,
0.648362546346,418.609341645,2.37015345495,
0.758809163074,335.59439202,2.40121479288,
0.869255779802,256.031921821,2.43315111012,
0.961294627075,186.777802518,2.4651913472,
1.03288039718,126.15488178,2.49715588958,
1.05333347435,96.6615444987,2.52933554174,
1.02060855087,95.082566941,2.56112731206,
0.967430550227,98.6741272924,2.59302385751,
0.94288685762,78.818279974,2.62511370241,
0.965385242509,31.1298852402,2.65717019032,
1.00833670457,-22.6698889525,2.68906801874,
1.04515224348,-69.1147365943,2.72105437145,
1.03901632033,-86.5489395755,2.75223716301,
0.99401955055,-84.1109327767,2.78408752188,
0.959249319358,-95.6301058398,2.81707715,
0.930615011317,-108.597356767,2.85039008425,
0.920388472731,-132.936518601,2.88152112972,
0.91425254958,-156.285751501,2.91363107434,
0.908116626428,-178.645055465,2.94500545472,
0.89993539556,-199.343569563,2.97698325437,
0.889708856974,-218.733086721,3.00928436015,
0.885618241539,-242.712274398,3.04095253857,
0.879482318388,-263.860756193,3.07294872732,
0.873346395236,-285.246493684,3.10493807362,
0.861074548933,-301.993473272,3.13690689254,
0.832440240893,-307.71215365,3.16894370838,
0.793579394266,-308.456645659,3.20089114462,
0.750627932205,-307.180373643,3.23293907946,
0.719948316448,-314.453487886,3.26512942295,
0.70358585471,-328.836091753,3.29718334494,
0.68926870069,-341.386099905,3.32890326945,
0.685178085256,-346.182346502,3.36089518167,
0.670860931235,-341.674488294,3.39283876902,
0.658589084932,-354.388121064,3.42529981726,
0.650407854064,-369.32704863,3.45690726887,
0.640181315478,-381.729794627,3.4887948336,
0.627909469175,-392.766275069,3.52080983911,
0.621773546023,-408.335157412,3.55287359714,
0.615637622871,-422.505049277,3.58478083393,
0.611547007437,-437.992119311,3.6167372509,
0.605411084286,-451.466606552,3.64867570641,
0.591093930265,-459.222413415,3.68128429515,
0.576776776245,-468.21358614,3.7128442772,
0.568595545376,-481.270830607,3.74470105087,
0.556323699073,-489.893847942,3.77679859353,
0.539961237336,-496.013408632,3.80863569514,
0.531780006467,-508.448879552,3.84097486209,
0.527689391033,-521.996997871,3.87265116593,
0.525644083315,-536.101439889,3.90467729044,
0.51541754473,-543.783615674,3.93664054986,
0.503145698426,-551.326710535,3.96855035258,
0.492919159841,-560.424239261,4.00054568602,
0.476556698103,-564.359411309,4.03261200997,
0.466330159517,-573.530571113,4.06469073587,
0.460194236366,-584.166171242,4.09786767627,
0.454058313214,-593.811842437,4.12860741868,
0.443831774628,-600.307739746,4.16063183257,
0.433605236042,-607.335417063,4.19260407272,
0.423378697456,-614.076751299,4.22471914917,
0.411106851153,-619.042758436,4.25663066251,
0.39883500485,-624.07421542,4.28886035014,
0.382472543113,-625.784092672,4.32037500091,
0.37020069681,-630.831912118,4.3529130268,
0.355883542789,-633.229012762,4.38447899601,
0.339521081052,-634.14531062,4.41650383755,
0.323158619315,-635.012521092,4.44851028999,
0.310886773011,-638.399550671,4.48056335667,
0.294524311274,-637.646877431,4.5127994591,
0.274071234102,-634.276210313,4.54448645429,
0.261799387799,-637.106916194,4.57641849499,
0.241346310627,-632.001828132,4.60838047145,
0.22498384889,-630.938268119,4.64147744063,
0.202485464001,-624.131484036,4.67244683303,
0.190213617698,-625.366849897,4.70443617933,
0.15953400194,-610.812440182,4.73642082143,
0.1308996939,-600.569539134,4.76828101633,
0.0961294627075,-584.648863864,4.8006218939,
0.0634045392326,-570.470790768,4.83226612372,
0.0245436926062,-550.500406218,4.86443251861,
-0.022498384889,-524.713166519,4.89632393222,
-0.0613592315154,-505.200930898,4.9282221883,
-0.120673155314,-468.074505215,4.9601662033,
-0.190213617698,-425.932985011,4.99240786523,
-0.263844695516,-380.91167154,5.02448188694,
-0.343611696486,-330.179858923,5.05647978631,
-0.441786466911,-265.040898746,5.08828481389,
-0.548142468204,-194.878662816,5.12028527918,
-0.664725008084,-115.929784933,5.15215531011,
-0.752673239923,-56.6076799037,5.18425285277,
-0.873346395236,34.7275815147,5.21630207057,
-0.97970239653,112.47381846,5.24828542971,
-1.03288039718,157.347869775,5.2802332936,
-1.00629139685,156.276128531,5.31231715135,
-0.938796242186,140.63361511,5.34410507278,
-0.824259010024,97.0358358109,5.37614915874,
-0.742446701337,83.4631737997,5.40805725085,
-0.67495154667,71.477670577,5.44029677451,
-0.640181315478,78.5626165093,5.47205860907,
-0.636090700043,100.463771545,5.50412407771,
-0.63813600776,120.581418251,5.53612753657,
-0.63813600776,138.040164925,5.5682678446,
-0.629954776892,149.95203707,5.60144820623,
-0.619728238306,161.782096906,5.63212593886,
-0.605411084286,170.756907169,5.66553338457,
-0.587003314831,177.17099217,5.69608966357,
-0.564504929942,180.909814677,5.72805335064,
-0.550187775922,190.792741566,5.76085096228,
-0.546097160487,206.08346206,5.79206711083,
-0.554278391356,228.148241713,5.82606386323,
-0.55836900679,245.009758534,5.85606718609,
-0.548142468204,252.381047546,5.88802403071,
-0.531780006467,257.862472228,5.92024174404,
-0.511326929295,261.134964576,5.95220286519,
-0.490873852123,264.652893849,5.98398052294,
-0.472466082669,269.08712098,6.01589631281,
-0.454058313214,272.596869023,6.04850276328,
-0.441786466911,280.058151575,6.07983865484,
-0.437695851477,291.904573873,6.11217482822,
-0.437695851477,304.978180801,6.14388962089,
-0.423378697456,306.810776516,6.17581310852,
-0.411106851153,312.59490674,6.20785591152,
-0.386563158547,308.692459616,6.23979778826,
-0.37020069681,312.513094431,6.27190687757,
-0.351792927355,312.750350127,6.30384533308,
-0.343611696486,320.326169911,6.33627559026,
-0.339521081052,328.60557555,6.36788560779,
-0.325203927032,328.50740078,6.39980567419,
-0.312932080729,331.542637432,6.43177663138,
-0.298614926708,332.336216826,6.46377666901,
-0.280207157254,330.160009415,6.49570272257,
-0.257708772365,325.30853951,6.52777032948,
-0.243391618345,326.601173987,6.55963266264,
-0.229074464324,325.856681978,6.5918593567,
-0.212712002587,323.222325638,6.62398683511,
-0.186123002263,313.093961823,6.65573070822,
-0.161579309657,305.755397734,6.68787614809,
-0.134990309334,295.83156469,6.71968288629,
-0.104310693576,282.594333144,6.75175434207,
-0.0756763855357,270.805179463,6.78382750848,
-0.0511326929295,260.783171648,6.81559490254,
-0.00818123086872,235.854961191,6.84771254492,
0.0429514620608,207.449727615,6.8796531387,
0.0981747704247,176.271056774,6.91160100259,
0.155443386506,142.875272368,6.94357709162,
0.220893233456,102.329092183,6.97562246054,
0.29043369584,58.6085944205,7.00746512164,
0.349747619638,21.2040068887,7.03952973497,
0.421333389739,-28.8405823353,7.07164352847,
0.47860200582,-68.0123157347,7.10360251135,
0.527689391033,-105.695065116,7.13577831463,
0.52973469875,-112.141875041,7.16752090478,
0.51541754473,-116.142496935,7.19958509046,
0.490873852123,-115.569810775,7.2314974591,
0.458148928649,-110.399272866,7.26355180874,
0.429514620608,-108.926651309,7.29549454079,
0.386563158547,-95.4112579141,7.32762928931,
0.335430465618,-77.6007183129,7.35953396019,
0.286343080405,-61.4836935015,7.39155366989,
0.245436926062,-49.5390964331,7.42406047706,
0.214757310304,-42.25780096,7.45661047726,
0.198394848567,-42.4950566552,7.48741522301,
0.192258925415,-46.8556527082,7.51943236679,
0.190213617698,-51.977103232,7.55152477761,
0.190213617698,-57.712146071,7.58355304038,
0.190213617698,-63.0381273665,7.61540853109,
0.188168309981,-66.875124644,7.64733971649,
0.196349540849,-78.5088349393,7.67931837144,
0.214757310304,-95.7712320723,7.71134150237,
0.229074464324,-108.525770997,7.74334154001,
0.22498384889,-109.098457157,7.77554642373,
0.212712002587,-107.282223905,7.80762643259,
0.177941771395,-90.3798009298,7.83935148894,
0.1308996939,-68.0695843508,7.87177490366,
0.0797670009701,-43.9185908263,7.90454728374,
0.0409061543436,-28.0879090954,7.93552180798,
0.0265890003234,-26.5825626155,7.96726995763,
0.0327249234749,-34.6574374829,7.99924348074,
0.0306796157577,-32.8575666918,8.03129526446,
0.0245436926062,-29.6587054221,8.06339665601,
0.0306796157577,-36.0400654998,8.09518201152,
0.0306796157577,-35.6719101107,8.12713073072,
0.0306796157577,-36.5309393519,8.15910339852,
0.0286343080405,-35.900984575,8.19123814705,
0.0306796157577,-38.6007907617,8.22329249669,
0.0306796157577,-39.0507584594,8.25518519326,
0.0306796157577,-39.9097877007,8.28731096106,
0.0306796157577,-40.7688169419,8.32000978471,
0.0306796157577,-41.6278461831,8.35112457935,
0.0306796157577,-42.4868754243,8.38353815804,
0.0306796157577,-43.3459046655,8.41509771244,
0.0306796157577,-44.2049339067,8.44710459253,
0.0306796157577,-45.063963148,8.48032216003,
0.0286343080405,-44.4340083711,8.51112904405,
0.0306796157577,-47.1338145577,8.54306792722,
0.0306796157577,-47.5837822555,8.5751680358,
0.0306796157577,-48.4428114967,8.60724376812,
0.0306796157577,-49.301840738,8.63893717811,
0.0306796157577,-50.1608699792,8.67097057273,
0.0306796157577,-51.0198992204,8.70392385029,
0.0306796157577,-51.8789284616,8.73624633875,
0.0286343080405,-51.2489736847,8.76835628336,
0.0265890003234,-50.9708118352,8.79959980174,
0.0306796157577,-55.1023334239,8.831426212,
0.0286343080405,-53.6542555601,8.86293316501,
0.0306796157577,-56.3540617468,8.89603954256,
0.0265890003234,-53.8260614084,8.92690587044,
0.0265890003234,-55.3886765043,8.95937205053,
0.0286343080405,-57.6221525314,8.99110779822,
0.0265890003234,-56.525867595,9.02286065206,
0.0286343080405,-59.1684051656,9.05494408215,
0.0306796157577,-61.0500882654,9.08693556671,
0.0265890003234,-58.522087927,9.11898649513,
0.0265890003234,-60.0847030229,9.15078810148,
0.0286343080405,-62.3181790501,9.18280096872,
0.0204530771718,-56.7549420594,9.21478390021,
0.0184077694546,-57.4748903758,9.24677367416,
0.0163624617374,-56.9103854459,9.27870571486,
0.0143171540203,-56.2886118998,9.31074381367,
0.0163624617374,-58.587537774,9.34270835605,
0.0143171540203,-57.1476411411,9.37467247078,
0.0143171540203,-57.9575829971,9.40681534473,
0.0143171540203,-58.3584633096,9.43863790611,
0.0163624617374,-60.2483276403,9.47097450714,
0.0122718463031,-57.3194469893,9.50279407494,
0.0122718463031,-58.4811817727,9.53469874582,
0.0143171540203,-60.3137774873,9.56669407926,
0.0122718463031,-58.8166122383,9.59863894958,
0.0122718463031,-59.5692854782,9.63072922213,
0.0122718463031,-59.9128971747,9.6625325391,
0.0122718463031,-60.2565088712,9.69461554153,
0.00818123086872,-57.6221525314,9.72660959201,
0.0122718463031,-61.6473181189,9.75865752685,
0.0102265385859,-59.6838227104,9.79162491698,
0.00613592315154,-57.401259298,9.82302538424,
0.00613592315154,-58.3911882331,9.8546157297,
0.00613592315154,-58.5629940813,9.88662517571,
0.00613592315154,-58.7347999296,9.91863975357,
0.00613592315154,-58.9066057778,9.95066972696,
0.00613592315154,-59.0784116261,9.9837513006,
0.00613592315154,-59.2502174743,10.0144803517,
